Round,Relative Time (ms),Value
0,9.566593647003174,1.3519913600000002
1,18.6045081615448,0.8143693000000001
2,26.791730880737305,0.8143693000000001
3,35.432743310928345,0.8121342199999999
4,43.09510564804077,0.8121342199999999
5,49.21704816818237,0.75434764
6,58.77447319030762,0.75434764
7,66.74425745010376,0.75434764
8,74.14213943481445,0.75434764
9,80.93063592910767,0.75434764
10,88.9543879032135,0.75434764
11,99.48156428337097,0.75434764
12,106.4352216720581,0.75434764
13,114.1444935798645,0.75434764
14,122.10433435440063,0.75434764
15,122.11503577232361,0.75434764
16,129.81213188171387,0.75434764
17,135.98733758926392,0.75434764
18,135.99767684936523,0.75434764
19,143.16279768943787,0.75434764
20,149.1979217529297,0.75434764
21,155.67622709274292,0.75434764
22,163.47698044776917,0.75434764
23,171.64715838432312,0.75434764
24,171.66386437416077,0.75434764
25,171.67325687408447,0.75434764
26,178.53735828399658,0.75434764
27,186.38429594039917,0.75434764
28,194.37264370918274,0.75434764
29,201.62654972076416,0.75434764
30,213.0579400062561,0.75434764
31,213.06803274154663,0.75434764
32,220.12802982330322,0.75434764
33,227.4454424381256,0.74561754
34,235.72181963920593,0.6990364
35,241.30480194091797,0.69186258
36,248.14642214775085,0.69186258
37,248.15808296203613,0.69186258
38,259.0339848995209,0.69186258
39,264.54255199432373,0.69186258
40,271.7349569797516,0.69186258
41,277.3269362449646,0.69186258
42,281.4751501083374,0.69186258
43,288.254447221756,0.69186258
44,288.2575912475586,0.69186258
45,297.06322836875916,0.69186258
46,305.67079162597656,0.66136928
47,312.6929783821106,0.66136928
48,319.68057322502136,0.66136928
49,326.7275092601776,0.66136928
50,333.80112862586975,0.66136928
51,339.87599873542786,0.66136928
52,339.8788890838623,0.66136928
53,347.78282046318054,0.66136928
54,352.38693261146545,0.66136928
55,352.4026267528534,0.66136928
56,360.16356587409973,0.66136928
57,366.7809340953827,0.66136928
58,373.7026011943817,0.65640152
59,382.20019125938416,0.65640152
60,389.68647265434265,0.5920978800000001
61,398.37873458862305,0.5920978800000001
62,406.70227122306824,0.5920978800000001
63,415.0527892112732,0.5920978800000001
64,424.23268246650696,0.5920978800000001
65,430.6144986152649,0.5920978800000001
66,437.52321696281433,0.5920978800000001
67,443.8030116558075,0.5920978800000001
68,452.2920241355896,0.5920978800000001
69,452.3044469356537,0.5920978800000001
70,458.9701340198517,0.5920978800000001
71,464.87835693359375,0.5920978800000001
72,470.2509937286377,0.5920978800000001
73,470.2632460594177,0.5920978800000001
74,476.9691767692566,0.5920978800000001
75,483.294052362442,0.5920978800000001
76,490.7004702091217,0.5920978800000001
77,495.2525703907013,0.5920978800000001
78,503.42213797569275,0.5920978800000001
79,509.51875948905945,0.5920978800000001
80,522.1266233921051,0.5920978800000001
81,527.3589997291565,0.5920978800000001
82,534.8318619728088,0.5920978800000001
83,542.8485498428345,0.5920978800000001
84,550.6406619548798,0.5920978800000001
85,555.8721845149994,0.5920978800000001
86,564.1117377281189,0.5920978800000001
87,568.8964676856995,0.5920978800000001
88,573.687249660492,0.5920978800000001
89,580.2079451084137,0.5920978800000001
90,586.920282125473,0.5920978800000001
91,594.146998167038,0.5920978800000001
92,602.1435768604279,0.5920978800000001
93,609.3318738937378,0.5920978800000001
94,615.9051713943481,0.5920978800000001
95,623.5402812957764,0.5920978800000001
96,629.748480796814,0.5920978800000001
97,636.3936667442322,0.5920978800000001
98,646.8696160316467,0.5920978800000001
99,653.7153418064117,0.5920978800000001
100,661.1460642814636,0.5920978800000001
101,667.7796332836151,0.5920978800000001
102,674.0520331859589,0.5920978800000001
103,674.0826394557953,0.5920978800000001
104,680.977032661438,0.5920978800000001
105,688.5190978050232,0.5920978800000001
106,694.0638689994812,0.5920978800000001
107,699.4328012466431,0.5920978800000001
108,708.9656596183777,0.5920978800000001
109,716.6038453578949,0.5920978800000001
110,722.4158504009247,0.5920978800000001
111,731.1370508670807,0.5920978800000001
112,737.8739829063416,0.5920978800000001
113,745.7424976825714,0.5920978800000001
114,753.5321764945984,0.5920978800000001
115,760.1603319644928,0.5920978800000001
116,766.7173411846161,0.5920978800000001
117,775.5174660682678,0.5920978800000001
118,780.6106929779053,0.5920978800000001
119,786.7678050994873,0.5920978800000001
120,792.1206183433533,0.5920978800000001
121,799.7721900939941,0.5920978800000001
122,808.3732407093048,0.5920978800000001
123,815.8511772155762,0.5920978800000001
124,822.267068862915,0.5920978800000001
125,830.5359559059143,0.5920978800000001
126,836.3560452461243,0.5920978800000001
127,836.3612670898438,0.5920978800000001
128,844.1525702476501,0.5920978800000001
129,851.9320573806763,0.5920978800000001
130,851.9451847076416,0.5920978800000001
131,855.7444405555725,0.5920978800000001
132,862.1386315822601,0.5920978800000001
133,867.2412362098694,0.5920978800000001
134,872.2450630664825,0.5920978800000001
135,872.2755346298218,0.5920978800000001
136,881.296639919281,0.5920978800000001
137,881.3109748363495,0.5920978800000001
138,887.5912563800812,0.5920978800000001
139,892.8442215919495,0.5920978800000001
140,900.9620201587677,0.5920978800000001
141,909.6917140483856,0.5920978800000001
142,909.7426080703735,0.5920978800000001
143,916.4079802036285,0.5920978800000001
144,923.2739908695221,0.5920978800000001
145,931.6818871498108,0.5920978800000001
146,940.667920589447,0.5920978800000001
147,945.9455115795135,0.5920978800000001
148,952.4755423069,0.5920978800000001
149,960.5454905033112,0.5920978800000001
150,968.5364692211151,0.5920978800000001
151,977.5134553909302,0.5920978800000001
152,983.2845683097839,0.5920978800000001
153,991.452579498291,0.5920978800000001
154,991.4648041725159,0.5920978800000001
155,997.1429193019867,0.5920978800000001
156,1003.1070232391357,0.5920978800000001
157,1008.3889253139496,0.5920978800000001
158,1008.3938674926758,0.5920978800000001
159,1008.3971045017242,0.5920978800000001
160,1015.6980838775635,0.5920978800000001
161,1025.0917723178864,0.5920978800000001
162,1032.272664308548,0.5920978800000001
163,1036.8176972866058,0.5920978800000001
164,1043.6509282588959,0.5920978800000001
165,1049.9438891410828,0.5920978800000001
166,1058.515291929245,0.5920978800000001
167,1064.299349308014,0.5920978800000001
168,1071.3281767368317,0.5920978800000001
169,1075.8748698234558,0.5920978800000001
170,1083.0123572349548,0.5920978800000001
171,1088.490477323532,0.5920978800000001
172,1094.6101233959198,0.5920978800000001
173,1101.3395292758942,0.5920978800000001
174,1101.3524198532104,0.5920978800000001
175,1110.4792485237122,0.5920978800000001
176,1117.02534866333,0.5920978800000001
177,1123.3996722698212,0.5920978800000001
178,1129.5403888225555,0.5920978800000001
179,1136.535083770752,0.5920978800000001
180,1141.5942583084106,0.5920978800000001
181,1148.6896522045135,0.5920978800000001
182,1152.3568263053894,0.5920978800000001
183,1158.343096256256,0.5920978800000001
184,1164.2685885429382,0.5920978800000001
185,1170.4388563632965,0.5920978800000001
